Frequency,Nominal,Min,Max
10,-0.0000444660318401426,-0.010702048563128744,0.010125873219560126
10.232929922807541,-0.00004692754298553178,-0.011206399671840134,0.010597641293192479
10.471285480508994,-0.00004956198861182471,-0.011734542179898604,0.011091091698125497
10.715193052376064,-0.00005238621507773578,-0.012287603027605865,0.011607189284239304
10.96478196143185,-0.00005541917635471647,-0.012866763339913635,0.01214693830767248
11.220184543019634,-0.000058682230400622414,-0.013473261161057112,0.012711383618602096
11.481536214968827,-0.00006219947896508777,-0.014108394346833296,0.013301611827867302
11.748975549395295,-0.000065998157199443,-0.014773523626527596,0.01391875244222735
12.022644346174129,-0.00007010908047213543,-0.01547007584753636,0.01456397895610623
12.302687708123814,-0.00007456715686506185,-0.01619954741721423,0.015238509886151498
12.589254117941671,-0.00007941197512541664,-0.01696350795805046,0.015943609732407542
12.882495516931337,-0.00008468847918838578,-0.01776360419396557,0.016680589847726374
13.182567385564068,-0.00009044774213667565,-0.01860156408770792,0.017450809194061025
13.489628825916533,-0.00009674785439782635,-0.019479201251422492,0.01825567496111217
13.803842646028844,-0.00010365494303012397,-0.020398419655183804,0.019096643019180223
14.125375446227538,-0.00011124434161130427,-0.021361218661153317,0.01997521817392227
14.45439770745927,-0.00011960193304866152,-0.022369698414410936,0.020892954185887394
14.791083881682068,-0.00012882569092381182,-0.023426065625296658,0.021851453512363277
15.135612484362076,-0.00013902744891978108,-0.024532639782388115,0.02285434669190909
15.488166189124808,-0.0001503349320464392,-0.025691859840175534,0.023912609122559523
15.84893192461113,-0.00016289408860919666,-0.02690629143111736,0.025018652939152876
16.218100973589294,-0.00017687176744579224,-0.028178634658120066,0.02617448692025596
16.5958690743756,-0.00019245879170884145,-0.029511732530718073,0.027382184920246893
16.982436524617437,-0.00020987348798331604,-0.03090858011662404,0.028643885162311315
17.37800828749375,-0.0002293657382607154,-0.03237233448958773,0.02996178899627986
17.78279410038922,-0.0002512216323627289,-0.03390632556546844,0.031338159026892125
18.197008586099827,-0.000275768809739456,-0.03551406793063398,0.03277531650390443
18.620871366628666,-0.0003033825930153545,-0.03719927378076143,0.03427563784906722
19.054607179632463,-0.00033449303049058537,-0.038965867104180464,0.0358415501763019
19.498445997580443,-0.000369592982379387,-0.040817999262188445,0.037475525639921674
19.952623149688787,-0.00040924740554084825,-0.04276006613945697,0.03918007442109399
20.417379446695282,-0.00045410401408517724,-0.04479672706156776,0.04095773613449043
20.892961308540382,-0.000504905519779505,-0.04693292570362086,0.04281106940474276
21.379620895022306,-0.0005625036861610636,-0.04917391324496416,0.044742639325016195
21.87761623949551,-0.000627875464751348,-0.05152527406013837,0.0467550024676817
22.38721138568338,-0.0007021415215625294,-0.053992954276482964,0.0488506890678414
22.908676527677713,-0.0007865875073466987,-0.05658329357446193,0.0510321819448144
23.442288153199204,-0.0008826884772762481,-0.05930306065909518,0.05330189166217903
23.988329190194886,-0.0009921369254080412,-0.06215949289015047,0.05566212735338716
24.547089156850284,-0.0011168749676070753,-0.06516034062646094,0.058115062555528216
25.11886431509578,-0.0012591312852929886,-0.0683139169166572,0.060662695296972546
25.703957827688615,-0.0014214635316732917,-0.071629153255988,0.06330680157366564
26.302679918953796,-0.0016068070054626015,-0.07511566222845359,0.06604888122164672
26.915348039269134,-0.0018185305140800496,-0.07878380796606851,0.06889009504784145
27.54228703338164,-0.0020605004832192153,-0.08264478548531774,0.07183119191423408
28.183829312644512,-0.002337154523061556,-0.08671071010552597,0.07487242427990497
28.840315031266034,-0.002653585837014273,-0.09099471831823777,0.07801345048684549
29.51209226666383,-0.003015640058965337,-0.0955110816619504,0.08125322182624677
30.199517204020136,-0.0034300263333821193,-0.10027533536570399,0.08458985213688762
30.902954325135877,-0.0039044447123861826,-0.10530442376087396,0.08802046736216973
31.622776601683764,-0.004447732239476415,-0.11061686472522028,0.09154103212230903
32.3593656929628,-0.005070030425188379,-0.11623293572021717,0.09514614993654999
33.11311214825908,-0.005782977200137251,-0.12217488431490706,0.09907008297435448
33.88441561392022,-0.006599926861339659,-0.12846716645969447,0.10326244512361567
34.67368504525312,-0.007536202012801143,-0.1351367161844755,0.10757955053240859
35.481338923357505,-0.008609382047556513,-0.14221325085018718,0.11201619389885845
36.30780547701009,-0.009839633330733085,-0.14972961658245523,0.11656524126316957
37.15352290971721,-0.011250086926666866,-0.15772217906249134,0.12121728420885938
38.018939632056075,-0.01286727047321018,-0.16623126544259362,0.12596023951264804
38.90451449942801,-0.01472160164539402,-0.17530166379016474,0.13077888608287766
39.81071705534967,-0.01684795157157161,-0.18498318713968115,0.13565432988480886
40.738027780411215,-0.01928628756562554,-0.19533130993893955,0.14056338627608736
41.68693834703348,-0.022082405614826495,-0.2064078854002155,0.14547786776055704
42.6579518801592,-0.025288764203068484,-0.21828195299021824,0.15036376361176507
43.651583224016534,-0.028965432234726328,-0.23103064598624282,0.15518029612245277
44.668359215096245,-0.03318116502621451,-0.24474020965274917,0.1598788364162286
45.70881896148743,-0.03801462350645072,-0.25950714109944434,0.16440166083825838
46.77351412871975,-0.04355575285136612,-0.2754394622019625,0.16868052696625088
47.86300923226376,-0.049907337683793955,-0.2926581370083232,0.17263504632114302
48.97788193684454,-0.05718675158053878,-0.3112986447048358,0.17617082900884684
50.118723362727145,-0.0655279187842529,-0.33151271832777807,0.1791773739386388
51.2861383991364,-0.075083505511893,-0.3534702578014213,0.18152567714305526
52.480746024977165,-0.08602735681697339,-0.37736142333680106,0.18306553034990924
53.70317963702517,-0.09855719226127305,-0.40339891147329876,0.18362248270169196
54.95408738576235,-0.11289756926366169,-0.43182041077352806,0.1829944408733586
56.2341325190348,-0.12930311641049197,-0.46289122703412877,0.18094788743655552
57.54399373371558,-0.1480620296289521,-0.4969070584571083,0.17721370495154973
58.88436553555878,-0.1694998112526202,-0.5341968891242483,0.171482604911656
60.25595860743565,-0.19398321488716808,-0.5751259539268574,0.16340017748057117
61.65950018614809,-0.22192433683086366,-0.6200987094788178,0.1525616012802143
63.09573444801919,-0.25378476688659396,-0.6695617232608725,0.13850608375333273
64.56542290346542,-0.2900796771576377,-0.7240063673134413,0.1207111432914555
66.06934480075947,-0.33138168663197304,-0.7839711735642251,0.09858689565009723
67.60829753919803,-0.3783242924007194,-0.8500436762045559,0.07147056993999153
69.1830970918935,-0.43160460649128907,-0.9228615339511808,0.0386215535261948
70.79457843841364,-0.4919850830539684,-1.0031126939479191,-0.0007826512025018263
72.44359600749884,-0.5602938681991808,-1.091534332884657,-0.04764908596480652
74.13102413009157,-0.6374233603105433,-1.1889102941331229,-0.1029700515202231
75.85775750291819,-0.7243265404974225,-1.296066737825188,-0.16782124270865406
77.62471166286898,-0.8220106313795078,-1.4138657400412236,-0.24335661974767722
79.43282347242794,-0.9315276793866457,-1.5431966239532333,-0.3307993304961667
81.28305161640971,-1.0539617430327808,-1.6849648853395718,-0.4314280656883599
83.17637711026687,-1.1904125169002704,-1.8400786906572495,-0.5465583870851577
85.11380382023741,-1.3419754330527824,-2.009433077425136,-0.6775188341452011
87.09635899560782,-1.5097185546420522,-2.1938921684277837,-0.8256219940769345
89.12509381337429,-1.694656895562491,-2.3942699112667536,-0.9921312006818419
91.2010839355907,-1.8977251370026513,-2.6113100545990746,-1.1782240728874223
93.32543007969882,-2.1197500261447617,-2.8456662481370527,-1.3849546518504234
95.4992586021433,-2.3614239853684986,-3.097883278576876,-1.613216361851372
97.72372209558077,-2.6232815829362615,-3.3846704862910304,-1.8637083115088935
99.99999999999969,-2.905680478903307,-3.7197719654627583,-2.1369074850647247
102.32929922807509,-3.2087882439284323,-4.075125199697949,-2.417620217513395
104.71285480508962,-3.5325760629416454,-4.450222167542717,-2.7063669709802123
107.1519305237603,-3.8768198196352217,-4.844393658266325,-3.0051758060899236
109.64781961431815,-4.241108475814183,-5.256832200990046,-3.315241917182885
112.20184543019599,-4.624859089236117,-5.686618116376387,-3.645934294751816
114.81536214968791,-5.027337329832347,-6.1327470343618256,-3.9969647637141916
117.48975549395259,-5.447682015160994,-6.594157321073877,-4.367862578847339
120.22644346174091,-5.884932022388338,-7.06975608534966,-4.757991436547385
123.02687708123777,-6.338053946492375,-7.558442741803269,-5.166571517619852
125.89254117941633,-6.805969036823449,-8.059129443795738,-5.592705006823653
128.824955169313,-7.287578213274294,-8.570758023781273,-6.035403431828269
131.8256738556403,-7.781784289079074,-9.092313360126411,-6.49361523100416
134.89628825916495,-8.28751086271727,-9.622833311600287,-6.966252163123523
138.03842646028806,-8.803717649381865,-10.161415518064814,-7.452213465793578
141.253754462275,-9.329412278720984,-10.70722146206506,-7.9504070033181415
144.5439770745923,-9.863658778631782,-11.259478230170101,-8.459766974444412
147.91083881682027,-10.405583093909314,-11.817478416698325,-8.979268043101005
151.35612484362034,-10.95437606003034,-12.380578587767857,-9.507935990953907
154.88166189124763,-11.509294276883985,-12.948196681099597,-10.044855161827096
158.48931924611082,-12.06965931684074,-13.519808665350169,-10.589173076739574
162.18100973589245,-12.634855667649735,-14.09494472846819,-11.140102652721101
165.95869074375548,-13.204327763096472,-14.673185212123075,-11.696922470019878
169.82436524617384,-13.777576400844655,-15.25415646141143,-12.258975512795676
173.78008287493694,-14.354154792985748,-15.83752671724316,-12.825666768909317
177.82794100389165,-14.933664444187514,-16.423002143537012,-13.396460024113683
181.9700858609977,-15.515751007087497,-17.010323052471634,-13.970874131792968
186.2087136662861,-16.100100225689854,-17.599260368023035,-14.54847898627106
190.54607179632404,-16.68643404516468,-18.189612350157113,-15.128891378715338
194.98445997580384,-17.274506940279327,-18.781201588556232,-15.711770871490794
199.52623149688725,-17.864102494083845,-19.37387226487395,-16.296815790135973
204.1737944669522,-18.45503024267035,-19.967487675530265,-16.88375940190758
208.9296130854032,-19.04712279004639,-20.561928002361793,-17.472366325618545
213.79620895022242,-19.640233188662908,-21.157088315504193,-18.06242919858786
218.77616239495444,-20.23423257525152,-21.752876791274325,-18.653765612155762
223.87211385683312,-20.82900804777764,-22.349213127186317,-19.24621531661889
229.08676527677645,-21.424460767022882,-22.94602713630284,-19.839637688888775
234.42288153199132,-22.020504265177433,-23.54325750367247,-20.433909451034538
239.88329190194813,-22.61706294353464,-24.14085068847294,-21.028922624594543
245.47089156850208,-23.21407074168701,-24.73875995654155,-21.624582703677717
251.18864315095703,-23.811469961333582,-25.33694452913918,-22.220807029058186
257.0395782768854,-24.40921022877731,-25.93536883499405,-22.8175233454026
263.02679918953714,-25.007247581308487,-26.534001853862485,-23.41466852423151
269.1534803926905,-25.605543663858157,-27.132816540991733,-24.01218743602729
275.4228703338155,-26.204065023505635,-27.73178932295714,-24.61003195593042
281.8382931264442,-26.802782490599345,-28.330899656358433,-25.20816008861473
288.4031503126594,-27.401670636372664,-28.930129641793553,-25.806535199129325
295.12092266663734,-28.00070729799103,-29.52946368637995,-26.405125337690585
301.9951720402004,-28.5998731629444,-30.12888820886574,-27.003902647567003
309.0295432513578,-29.199151405595593,-30.728391382068132,-27.602842846301094
316.2277660168366,-29.79852736951109,-31.32796290799968,-28.20192477154184
323.5936569296269,-30.39798828993773,-31.927593821599128,-28.801129983711988
331.13112148258966,-30.99752305145124,-32.52727631947793,-29.400442418603554
338.84415613920106,-31.597121976394696,-33.12700361053215,-29.999848083784563
346.7368504525301,-32.19677664025288,-33.7267697856571,-30.599334793410726
354.8133892335739,-32.79647971057707,-34.32656970414436,-31.198891936674574
363.07805477009975,-33.39622480649006,-34.92639889464249,-31.798510275694383
371.5352290971709,-33.99600637616758,-35.526253468827605,-32.39818176915251
380.18939632055947,-34.595819590016035,-36.12613004616341,-32.99789941844275
389.0451449942788,-35.195660247551025,-36.72602568833416,-33.5976571334849
398.1071705534954,-35.795524696231205,-37.325937842113724,-34.19744961571581
407.3802778041108,-36.3954097607221,-37.92586428959039,-34.79727225607661
416.8693834703334,-36.99531268125685,-38.52580310480463,-35.397121046088216
426.5795188015906,-37.59523105992981,-39.125752615977134,-35.99699250034674
436.51583224016383,-38.19516281390678,-39.725711372609204,-36.59688358898094
446.6835921509609,-38.79510613466501,-40.32567811682969,-37.196791678797794
457.08818961487276,-39.395059452488915,-40.925651758442385,-37.79671448200428
467.73514128719586,-39.995021405546574,-41.52563135319784,-38.3966500115341
478.63009232263596,-40.59499081295826,-42.12561608387485,-38.996596542132465
489.77881936844375,-41.1949666513437,-42.72560524380986,-39.59655257645944
501.1872336272698,-41.79494803440033,-43.32559822255877,-40.19651681556738
512.8613839913622,-42.394934195122616,-43.92559449341693,-40.79648813318984
524.8074602497699,-42.99492447032211,-44.52559360255741,-41.3964655533521
537.0317963702499,-43.59491828715225,-45.125595159579454,-41.99644823087546
549.5408738576217,-44.1949151513792,-45.72559882928487,-42.59643543440319
562.3413251903462,-44.79491463717403,-46.32560432452455,-43.19642653162306
575.439937337154,-45.39491637823002,-46.92561139997677,-43.796420976403596
588.843655355586,-45.99492006003424,-47.52561984673737,-44.396418297597535
602.5595860743547,-46.594925413144566,-48.1256294876171,-44.99641808929751
616.595001861479,-47.19493220734257,-48.725640173054856,-45.59642000235666
630.9573444801899,-47.79494024654931,-49.32565177756766,-46.19642373701136
645.6542290346521,-48.39494936440553,-49.92566419666794,-46.79642903646359
660.6934480075925,-48.99495942043083,-50.52567734418811,-47.39643568129948
676.0829753919782,-49.59497029668691,-51.12569114995996,-47.99644348463599
691.8309709189327,-50.19498189488004,-51.7257055578031,-48.596452287902
707.9457843841341,-50.79499413384619,-52.325720523782735,-49.19646195717172
724.4359600749862,-51.39500694736947,-52.92573601470231,-49.79647237997956
741.3102413009135,-51.99502028229077,-53.52575200680057,-50.396483462554016
758.5775750291797,-52.595034096869746,-54.12576848462707,-50.99649512741686
776.2471166286875,-53.19504835936695,-54.72578544007315,-51.59650731130028
794.3282347242772,-53.79506304681827,-55.32580287153849,-52.19651996334129
812.8305161640948,-54.395078143976846,-55.925820783216025,-52.7965330435175
831.7637711026664,-54.99509364240086,-56.52583918448003,-53.396546521293246
851.1380382023717,-55.59510953966881,-57.12585808936435,-53.99656037444909
870.9635899560758,-56.19512583870569,-57.72587751611933,-54.596574588071114
891.2509381337405,-56.79514254720608,-58.32589748683749,-55.196589153679405
912.0108393559046,-57.39515967714187,-58.92591802713936,-55.79660406847812
933.2543007969858,-57.995177244343765,-59.5259391659118,-56.39661933471132
954.9925860214306,-58.595195268147215,-60.12596093509249,-56.99663495911128
977.2372209558052,-59.195213771094906,-60.72598336949456,-57.596650952427446
999.9999999999944,-59.79523277868844,-61.326006506666644,-58.19666732902572
1023.2929922807484,-60.39525231918311,-61.92603038678386,-58.79668410654929
1047.1285480508936,-60.9952724234207,-62.52605505256598,-59.39670130563323
1071.5193052376003,-61.595293124695154,-63.12608054921932,-59.99671894966597
1096.4781961431788,-62.19531445864746,-63.726106924399545,-60.59673706459208
1122.018454301957,-62.79533646318591,-64.32613422819276,-61.19675567875091
1148.1536214968762,-63.39535917842888,-64.92616251311257,-61.79677482274685
1174.8975549395227,-63.99538264666707,-65.52619183411095,-62.396794529347346
1202.2644346174059,-64.59540691234318,-66.12622224860124,-62.99681483340511
1230.2687708123742,-65.19543202204653,-66.72625381649128,-63.596835771801736
1258.9254117941596,-65.79545802452098,-67.32628660022546,-64.19685738341002
1288.249551693126,-66.39548497068436,-67.92632066483377,-64.79687970907284
1318.256738556399,-66.99551291365792,-68.52635607798658,-65.39690279159649
1348.9628825916452,-67.59554190880415,-69.12639291005388,-65.99692667575654
1380.384264602876,-68.1955720137721,-69.72643123416704,-66.59695140831512
1412.5375446227454,-68.7956032885484,-70.32647112628214,-67.19697703804756
1445.4397707459184,-69.39563579551324,-70.92651266524288,-67.79700361577761
1479.108388168198,-69.99566959949958,-71.52655593284143,-68.39703119441963
1513.5612484361984,-70.59570476785494,-72.12660101387557,-68.9970598290269
1548.8166189124713,-71.19574137050388,-72.72664799619972,-69.59708957684485
1584.8931924611031,-71.79577948001024,-73.32669697076781,-70.19712049736798
1621.8100973589194,-72.39581917163738,-73.92674803166528,-70.79715265239957
1659.5869074375498,-72.99586052340499,-74.52680127612719,-71.39718610611307
1698.2436524617333,-73.59590361614026,-75.12685680453914,-71.99722092511372
1737.8008287493642,-74.19594853352226,-75.72691472041716,-72.59725717849952
1778.2794100389112,-74.79599536211579,-76.32697513036193,-73.19729493791978
1819.7008586099716,-75.39604419139371,-76.92703814398251,-73.79733427763009
1862.0871366628553,-75.99609511374331,-77.52710387378353,-74.39737527454157
1905.4607179632346,-76.59614822445432,-78.1271724350089,-74.99741800826298
1949.8445997580325,-77.19620362168394,-78.72724394543474,-75.59746256113306
1995.2623149688663,-77.79626140639466,-79.327318525102,-76.19750901824061
2041.7379446695156,-78.39632168225958,-79.92739629597875,-76.79755746742994
2089.2961308540253,-78.99638455552905,-80.52747738153997,-77.39760799928773
2137.9620895022176,-79.59645013485193,-81.12756190625132,-77.9976607071079
2187.761623949538,-80.196518531043,-81.72764999494086,-78.59771568682999
2238.7211385683245,-80.79658985678769,-82.32774177204047,-79.19777303694606
2290.8676527677576,-81.39666422627327,-82.9278373606759,-79.79783285837027
2344.228815319906,-81.9967417547341,-83.52793688158147,-80.39789525426441
2398.832919019474,-82.59682255789683,-84.12804045181119,-80.9979603298116
2454.7089156850134,-83.19690675130921,-84.7281481832143,-81.59802819192947
2511.8864315095625,-83.79699444953377,-85.32826018063861,-82.1980989489122
2570.3957827688455,-84.39708576518436,-85.92837653981852,-82.79817270998977
2630.267991895363,-84.9971808077809,-86.52849734489955,-83.39824958479083
2691.5348039268965,-85.59727968239346,-87.12862266554251,-83.99832968269307
2754.2287033381467,-86.19738248804266,-87.72875255354305,-84.59841311204346
2818.3829312644334,-86.7974893158181,-88.32888703889216,-85.1984999792272
2884.031503126585,-87.3976002466712,-88.929026125192,-85.79859038756098
2951.209226666364,-87.99771534883233,-89.52916978432901,-86.39868443598382
3019.951720401994,-88.59783467479357,-90.12931795029127,-86.99878221751241
3090.2954325135674,-89.19795825779131,-90.72947051200033,-87.59888381742543
3162.277660168356,-89.79808610771147,-91.32962730500849,-88.19898931113373
3235.9365692962583,-90.39821820632964,-91.92978810189001,-88.79909876168853
3311.311214825886,-90.99835450178497,-92.52995260112974,-89.39921221687142
3388.441561392,-91.59849490217111,-93.13012041428279,-89.99932970580232
3467.36850452529,-92.19863926811108,-93.7302910511457,-90.5994512349913
