Frequency,Nominal,Min,Max
10,0.9999948806720008,0.9987686398725082,1.0011664640270257
10.232929922807541,0.9999945972815483,0.9987106474886014,1.0012208431661647
10.471285480508994,0.9999942939814715,0.9986499230801142,1.0012777247160178
10.715193052376064,0.9999939688322917,0.9985863375854183,1.0013372203337276
10.96478196143185,0.9999936196518875,0.9985197557707448,1.00139944626594
11.220184543019634,0.9999932439813748,0.9984500359217986,1.0014645234902007
11.481536214968827,0.9999928390459869,0.9983770295178608,1.0015325778542956
11.748975549395295,0.9999924017102205,0.9983005808870653,1.0016037402123827
12.022644346174129,0.9999919284263964,0.9982205268414187,1.0016781465565445
12.302687708123814,0.9999914151756586,0.9981366962899714,1.001755938142212
12.589254117941671,0.9999908574002874,0.9980489098283755,1.001837261605622
12.882495516931337,0.9999902499260459,0.997956979302881,1.0019222690712148
13.182567385564068,0.99998958687308,0.9978607073465803,1.002011118246543
13.489628825916533,0.9999888615536672,0.997759886885484,1.0021039725018832
13.803842646028844,0.9999880663548747,0.9976543006117117,1.0022010009313362
14.125375446227538,0.9999871926038817,0.9975437204207674,1.0023023783917089
14.45439770745927,0.9999862304133951,0.9974279068094991,1.0024082855149161
14.791083881682068,0.9999851685042119,0.9973066082309241,1.0025189086890183
15.135612484362076,0.9999839940015274,0.9971795604016362,1.002634668555199
15.488166189124808,0.9999826922011074,0.9970464855569666,1.0027568339620638
15.84893192461113,0.9999812463008444,0.9969070916484559,1.002884531142181
16.218100973589294,0.9999796370925722,0.9967610714775,1.0030179941721484
16.5958690743756,0.9999778426082384,0.9966081017582394,1.0031574648646489
16.982436524617437,0.9999758377136705,0.9964478421018448,1.003303192705917
17.37800828749375,0.9999735936421659,0.9962799339133397,1.003455434732588
17.78279410038922,0.999971077458979,0.9961039991909036,1.003614455337003
18.197008586099827,0.999968251446475,0.9959196392162674,1.0037805259883905
18.620871366628666,0.9999650723981753,0.9957264331232926,1.0039539248554064
19.054607179632463,0.9999614908082121,0.9955239363300804,1.0041349363133225
19.498445997580443,0.9999574499406944,0.995311678817966,1.004323850316615
19.952623149688787,0.9999528847611905,0.9950891632385139,1.0045209616147914
20.417379446695282,0.9999477207099347,0.9948558628270393,1.0047265687859561
20.892961308540382,0.9999418722933199,0.9946112190982742,1.0049409730587777
21.379620895022306,0.9999352414667989,0.9943546392964447,1.0051644768890982
21.87761623949551,0.9999277157783606,0.9940854935682574,1.0053973822523874
22.38721138568338,0.9999191662371886,0.9938031118229651,1.0056399886073897
22.908676527677713,0.999909444866926,0.9935067802388083,1.0058925904796712
23.442288153199204,0.9998983818969925,0.9931957373695482,1.0061554746060783
23.988329190194886,0.9998857825385783,0.9928691697985182,1.006428916572321
24.547089156850284,0.999871423284137,0.992526207280458,1.0067131768657887
25.11886431509578,0.9998550476602238,0.9921659173032953,1.0070084962541064
25.703957827688615,0.9998363613533509,0.991787298992885,1.0073150903866324
26.302679918953796,0.9998150266167813,0.9913892762733405,1.0076331435008337
26.915348039269134,0.9997906558529008,0.9909706901839295,1.0079628010980046
27.54228703338164,0.9997628042505226,0.9905302902403078,1.0083041614327402
28.183829312644512,0.9997309613391517,0.9900667247130952,1.0086572656376778
28.840315031266034,0.999694541302446,0.9895785296801426,1.0090220862787744
29.51209226666383,0.999652871870635,0.9890641166902587,1.009398514106473
30.199517204020136,0.9996051815861199,0.9885217588554002,1.009786342733937
30.902954325135877,0.9995505852075367,0.9879495751651961,1.0101852509346252
31.622776601683764,0.9994880669848325,0.9873455127920783,1.0105947822072825
32.3593656929628,0.9994164615009506,0.9867073271270173,1.0110143212062344
33.11311214825908,0.9993344317341774,0.9860325592548198,1.01147115969905
33.88441561392022,0.9992404439485614,0.9853185105440943,1.0119594777761267
34.67368504525312,0.9991327389678015,0.9845622139903677,1.0124625720799558
35.481338923357505,0.9990092993301402,0.983760401911543,1.0129798573493827
36.30780547701009,0.9988678117578905,0.9829094695533119,1.0135105226522685
37.15352290971721,0.99870562430518,0.9820054341187264,1.0140534903292187
38.018939632056075,0.9985196974712934,0.9810438886918132,1.0146073683970585
38.90451449942801,0.9983065484852056,0.9800199504810445,1.0151703954338227
39.81071705534967,0.9980621878801968,0.9789282027664821,1.015740376834091
40.738027780411215,0.997782047387501,0.9777626298968422,1.0163146111771728
41.68693834703348,0.99746089808693,0.9765165446529721,1.016889805291344
42.6579518801592,0.9970927576639169,0.9751825072765775,1.0174619764265
43.651583224016534,0.9966707855414293,0.9737522354633666,1.0180263397679294
44.668359215096245,0.9961871645886947,0.9722165046454158,1.0185771793400615
45.70881896148743,0.9956329680662879,0.9705650379482365,1.0191077001682802
46.77351412871975,0.9949980104617386,0.9687863853156178,1.0196098593999343
47.86300923226376,0.9942706809185796,0.9668677914650426,1.0200741739482717
48.97788193684454,0.9934377580868605,0.9647950525866756,1.0204895021368667
50.118723362727145,0.992484205453299,0.9625523620520176,1.0208427968175444
51.2861383991364,0.9913929465805053,0.9601221458807642,1.021118827552242
52.480746024977165,0.9901446202419525,0.9574848893569404,1.0212998697427131
53.70317963702517,0.9887173162371516,0.9546189570225175,1.0213653591312584
54.95408738576235,0.987086293774577,0.9515004093459005,1.0212915109701457
56.2341325190348,0.9852236857927192,0.9481028207020981,1.0210509044782206
57.54399373371558,0.9830981945347279,0.9443971049466494,1.020612035105621
58.88436553555878,0.9806747861849465,0.9403513568442048,1.0199388397702303
60.25595860743565,0.9779143954974521,0.9359307199369784,1.0189902037911132
61.65950018614809,0.9747736551607953,0.93109729409336,1.0177194629127455
63.09573444801919,0.9712046691754596,0.9258100989073502,1.0160739197680821
64.56542290346542,0.9671548547317148,0.9200251122106504,1.0139944015045275
66.06934480075947,0.9625668828236247,0.9136954060177297,1.0114148941384622
67.60829753919803,0.9573787538291715,0.9067714049550595,1.0082622993893289
69.1830970918935,0.9515240500346861,0.8992012942141232,1.0044563708898369
70.79457843841364,0.9449324118379809,0.8909316047673799,0.9999098980098334
72.44359600749884,0.9375302870895337,0.8819080023249708,0.9945292157922262
74.13102413009157,0.9292420023847392,0.8720763025221793,0.9882151267775022
75.85775750291819,0.9199911995139904,0.8613837273257452,0.9808643222009477
77.62471166286898,0.9097026680168906,0.8497804059417715,0.9723713829755155
79.43282347242794,0.8983045843362928,0.8372211071803428,0.9626314214656893
81.28305161640971,0.885731138448548,0.8236671693518804,0.9515433899680651
83.17637711026687,0.8719254901528343,0.809088569129034,0.9390140288081925
85.11380382023741,0.8568429511607806,0.7934660441186266,0.9249623561181818
87.09635899560782,0.8404542395564757,0.7767931578763898,0.9093245163767925
89.12509381337429,0.8227486061685578,0.7590781744011386,0.8920587140438785
91.2010839355907,0.8037365958743117,0.7403455959538695,0.8731498753791664
93.32543007969882,0.7834521896502182,0.7206372174565747,0.8526136228321396
95.4992586021433,0.7619540832239291,0.7000125658718656,0.8304991301348673
97.72372209558077,0.7393259003796657,0.6772772312091586,0.806890466806518
99.99999999999969,0.7156752131983949,0.6516455017764655,0.7819061440698588
102.32929922807509,0.691131341427063,0.6255236582520954,0.7570402824621174
104.71285480508962,0.6658420164491864,0.5990856150133453,0.7322875515459437
107.1519305237603,0.6399691056305763,0.5725063619117112,0.7075240545728536
109.64781961431815,0.6136836830864868,0.5459569387429474,0.6827125779411652
112.20184543019599,0.5871607891960915,0.5195999423087035,0.6572086717865402
114.81536214968791,0.5605742357497433,0.493585790136631,0.6311778675764953
117.48975549395259,0.5340917864930105,0.4680498753799584,0.6047931603565594
120.22644346174091,0.5078709813394262,0.44311065762040924,0.5782297443447223
123.02687708123777,0.4820557890129681,0.4188686556619076,0.5516599098512017
125.89254117941633,0.4567741815996935,0.3954062482613698,0.5252484139290061
128.824955169313,0.43213663851223133,0.37278815003567395,0.4991485667342916
131.8256738556403,0.40823551639817796,0.3510624117065993,0.47349918786701056
134.89628825916495,0.38514517088754974,0.3302617930407112,0.4484224961384577
138.03842646028806,0.36292268691028473,0.31040536869141433,0.4240229144029492
141.253754462275,0.3416090645100116,0.29150024686992243,0.4003867065752253
144.5439770745923,0.3212307125587052,0.27354330414919664,0.3775823205901322
147.91083881682027,0.30180111872972526,0.2565228634841126,0.3556612887592896
151.35612484362034,0.2833225859167549,0.2404202645016349,0.33465953282169536
154.88166189124763,0.2657879491832691,0.225211294010014,0.3145989305230791
158.48931924611082,0.2491822105074405,0.21086745997604475,0.29548901896727187
162.18100973589245,0.23348404928423222,0.1973571039297698,0.27732873288298093
165.95869074375548,0.2186671838555988,0.1846463552065047,0.2601080998634885
169.82436524617384,0.20470157300401748,0.17269993612126366,0.24380983713297413
173.78008287493694,0.19155445653778974,0.16148183063589658,0.2284108140162284
177.82794100389165,0.17919124123940625,0.1509558308482114,0.21388336037653746
181.9700858609977,0.16757624306955318,0.14108597616710408,0.20019641374999897
186.2087136662861,0.1566732991614476,0.13183689972187632,0.18731650701856173
190.54607179632404,0.14644626430251034,0.12317409569083888,0.17520860469887867
194.98445997580384,0.13685940671076585,0.11506412005372849,0.16383679982143312
199.52623149688725,0.12787771731898823,0.10747473594137653,0.15316488546703477
204.1737944669522,0.1194671457496426,0.10037501339045703,0.14315681579306966
208.9296130854032,0.11159477489822407,0.093735391987488,0.13377707122088162
213.79620895022242,0.10422894468428466,0.08752771365136695,0.12499094168865237
218.77616239495444,0.09733933417520352,0.08172523168299199,0.11676474074588487
223.87211385683312,0.09089700999961266,0.07630260121445274,0.10906596195557798
229.08676527677645,0.08487444778163312,0.07123585531940274,0.1018633877043746
234.42288153199132,0.07924553226170877,0.06650237029485949,0.09512715918347152
239.88329190194813,0.07398554083033611,0.06208082298347268,0.08882881504632284
245.47089156850208,0.0690711143847405,0.05795114246316645,0.08294130510257267
251.18864315095703,0.06448021871792715,0.05409445797633071,0.07743898438442706
257.0395782768854,0.06019209905423348,0.05049304459200454,0.07229759202418339
263.02679918953714,0.056187229844051965,0.047130267781048674,0.06749421860523805
269.1534803926905,0.052447261511152005,0.04399052782642025,0.06300726498488245
275.4228703338155,0.04895496549787761,0.04105920477965853,0.058816395024715355
281.8382931264442,0.04569417866613069,0.038322604502992456,0.05490248419193858
288.4031503126594,0.04264974787621836,0.03576790619752386,0.05124756560064277
295.12092266663734,0.039807475373157694,0.033383111706126546,0.047834774735552366
301.9951720402004,0.03715406545378061,0.03115699679027426,0.04464829383161998
309.0295432513578,0.03467707276184995,0.02907906450897509,0.04167329666244426
316.2277660168366,0.03236485245717249,0.027139500771996387,0.0388958943109126
323.5936569296269,0.03020651242397717,0.025329132095829075,0.036303082349969575
331.13112148258966,0.02819186761992075,0.02363938555705414,0.03388268974418427
338.84415613920106,0.026311396616906804,0.022062250912031796,0.031623329688903926
346.7368504525301,0.024556200345894445,0.020590244832567182,0.02951435252909157
354.8133892335739,0.022917963027911447,0.019216377193130824,0.027545800840965116
363.07805477009975,0.02138891525082659,0.017934119335275816,0.02570836671339181
371.5352290971709,0.01996179913464406,0.01673737422824144,0.023993351230237537
380.18939632055947,0.018629835515981512,0.015620448440667048,0.022392626127539318
389.0451449942788,0.017386693074027983,0.014578025836297182,0.020898597578825718
398.1071705534954,0.016226459314863124,0.013605142906082246,0.01950417204681276
407.3802778041108,0.015143613327924714,0.012697165649801579,0.01820272412895426
416.8693834703334,0.014133000227122149,0.011849767921961907,0.016988066317029114
426.5795188015906,0.01318980718919599,0.011058911159017516,0.015854420586377767
436.51583224016383,0.012309541003084316,0.010320825407731793,0.014796391727963185
446.6835921509609,0.011488007046008344,0.009631991577602363,0.013808942335651485
457.08818961487276,0.01072128960451951,0.008989124843587798,0.012887369361599184
467.73514128719586,0.01000573346168743,0.008389159128809427,0.01202728215408673
478.63009232263596,0.00933792667481943,0.007829232600386,0.01122458189430556
489.77881936844375,0.008714684471481866,0.0073066741150367145,0.010475442351289428
501.1872336272698,0.008133034195058508,0.006818990554518426,0.009776291877223156
512.8613839913622,0.007590201234568824,0.0063638549943127905,0.009123796568640824
524.8074602497699,0.007083595876929477,0.005939095652228148,0.008514844522440994
537.0317963702499,0.006610801023240121,0.005542685566711453,0.007946531119126283
549.5408738576217,0.006169560713981549,0.005172732957668135,0.0074161452691572
562.3413251903462,0.005757769411211707,0.004827472225454833,0.0069211565617534705
575.439937337154,0.005373461988919039,0.0045052555464391965,0.006459203258845919
588.843655355586,0.005014804385635188,0.00420454502611113,0.00602808108015373
602.5595860743547,0.004680084876214318,0.003923905373182229,0.00562573272851954
616.595001861479,0.004367705922353221,0.0036619970604274354,0.005250238107665041
630.9573444801899,0.004076176563954312,0.0034175699402087282,0.004899805187426708
645.6542290346521,0.003804105315825118,0.003189457284679416,0.00457276147429022
660.6934480075925,0.0035501935364654668,0.0029765702226041686,0.004267546047662136
676.0829753919782,0.0033132292378218096,0.0027778925465497153,0.003982702124799292
691.8309709189327,0.0030920813068914237,0.002592475865909599,0.0037168701196624715
707.9457843841341,0.0028856941119425853,0.0024194350828288746,0.0034687811631746277
724.4359600749862,0.0026930824678861286,0.002257944169596933,0.0032372510544495144
741.3102413009135,0.002513326936993824,0.002107232227484038,0.0030211746145192377
758.5775750291797,0.0023455694427159555,0.0019665798083149696,0.002819520415933456
776.2471166286875,0.0021890091758095076,0.0018353154813065904,0.002631325863335085
794.3282347242772,0.0020428987733548225,0.0017128126288501837,0.0024556926017421338
812.8305161640948,0.0019065407525179973,0.0015984864559986682,0.0022917822307886733
831.7637711026664,0.0017792841821134009,0.0014917911994279758,0.0021388123046053773
851.1380382023717,0.0016605215761405845,0.0013922175225852278,0.001996052598356664
870.9635899560758,0.0015496859945171517,0.001299290084617967,0.0018628216237026568
891.2509381337405,0.001446248337208221,0.0012125652715024755,0.0017384833766248915
912.0108393559046,0.0013497148188682672,0.0011316290785588663,0.0016224443021496317
933.2543007969858,0.001259624611966324,0.0010560951342595245,0.0015141504615265933
954.9925860214306,0.001175547647164585,0.000985602855908958,0.0014130848883779933
977.2372209558052,0.001097082560466828,0.0009198157284002023,0.0013187651212274321
999.9999999999944,0.0010238547773503887,0.0008584196978384904,0.0012307409006540346
1023.2929922807484,0.0009555147247465401,0.0008011216723697058,0.0011485920200982774
1047.1285480508936,0.0008917361623422342,0.000747648123061608,0.0010719263200754253
1071.5193052376003,0.000832214625244057,0.0006977437781624887,0.0010003778162340057
1096.4781961431788,0.0007766659705753648,0.0006511704045068389,0.0009336049523330348
1122.018454301957,0.0007248250210726578,0.0006077056702529963,0.0008712889698060866
1148.1536214968762,0.0006764442992093293,0.0005671420835255118,0.0008131323861351221
1174.8975549395227,0.000631292845806408,0.0005292860018968958,0.0007588575747751782
1202.2644346174059,0.0005891551174926111,0.0004939567079812725,0.0007082054398546853
1230.2687708123742,0.0005498299577520203,0.00046098554672782286,0.0006609341793278188
1258.9254117941596,0.0005131296366485728,0.0004302151202962268,0.0006168181306768277
1288.249551693126,0.0004788789546441638,0.0004014985366710648,0.0005756466936558581
1318.256738556399,0.0004469144062328687,0.0003746987084285399,0.0005372233249351211
1348.9628825916452,0.00041708339939917867,0.0003496876983082088,0.0005013645998471635
1380.384264602876,0.00038924352717449807,0.0003263461084657849,0.0004678993367570592
1412.5375446227454,0.00036326188781473967,0.0003045625104915316,0.00043666777987709537
1445.4397707459184,0.0003390144503538929,0.0002842329134733435,0.0004075208366253508
1479.108388168198,0.0003163854625049794,0.00026526026756518894,0.00038031936588782877
1513.5612484361984,0.00029526689808192244,0.0002475540006910675,0.0003549335137867033
1548.8166189124713,0.0002755579413044946,0.0002310295861727967,0.000331242093783953
1584.8931924611031,0.00025716450552453883,0.00021560813921756163,0.0003091320081612404
1621.8100973589194,0.00023999878407597011,0.00020121604033891693,0.0002884977081143747
1659.5869074375498,0.00022397883110439792,0.00018778458391350628,0.00026924068988500504
1698.2436524617333,0.0002090281703753202,0.000175249650195753,0.0002512690245241923
1737.8008287493642,0.0001950754301933949,0.00016355139922475824,0.0002344969190430546
1778.2794100389112,0.00018205400268994122,0.00015263398516215227,0.0002188443068554915
1819.7008586099716,0.0001699017258521524,0.00014244528969717965,0.0002042364655578297
1862.0871366628553,0.00015856058677606185,0.0001329366732463214,0.00019060366022072175
1905.4607179632346,0.0001479764447266261,0.00012406274275971095,0.00017788081049041835
1949.8445997580325,0.0001380987726828446,0.00011578113502587467,0.0001660071799101976
1995.2623149688663,0.00012888041613407853,0.00010805231444032149,0.00015492608597880453
2041.7379446695156,0.00012027736797609118,0.000100839384272552,0.00014458462956175398
2089.2961308540253,0.00011224855843218812,0.00009410791053049844,0.0001349334423637335
2137.9620895022176,0.00010475565899656573,0.00008782575758154957,0.00012592645125656982
2187.761623949538,0.00009776289946391729,0.00008196293474543652,0.00011752065833768454
2238.7211385683245,0.00009123689717182082,0.00007649145312663609,0.00010967593566906611
2290.8676527677576,0.00008514649764073284,0.0000713851920028323,0.00010235483371686309
2344.228815319906,0.00007946262585082762,0.00006661977413159424,0.00009552240257711673
2398.832919019474,0.0000741581474456984,0.00006217244938000676,0.00008914602513418617
2454.7089156850134,0.00006920773920032988,0.000058021986121720596,0.00008319526135538722
2511.8864315095625,0.00006458776813497553,0.000054148569882971824,0.00007764170297853008
2570.3957827688455,0.00006027617869785131,0.00005053370875372573,0.00007245883789865744
2630.267991895363,0.0000562523874780753,0.00004716014511239566,0.00006762192360658421
2691.5348039268965,0.00005249718494623243,0.000044011773242729804,0.00006310786907505794
2754.2287033381467,0.000048992643753492314,0.0000410735624495846,0.000058895124528683126
2818.3829312644334,0.00004572203315151901,0.000038331485306557225,0.000054963578571391916
2884.031503126585,0.00004266973912463032,0.000035772450692946494,0.00005129446218036592
2951.209226666364,0.00003982118985293491,0.00003338424130037652,0.00004787025910809618
3019.951720401994,0.000037162786150624546,0.00003115545531075372,0.00004467462226485799
3090.2954325135674,0.000034681836547349644,0.000029075451967142462,0.0000416922956824277
3162.277660168356,0.000032366496702771166,0.000027134300777727284,0.00003890904168651364
3235.9365692962583,0.00003020571286506931,0.000025322734110374912,0.00003631157293023853
