Frequency,Nominal,Min,Max
10,-11.387749258754516,-12.079253882757222,-10.708099678209402
10.232929922807541,-11.65392199294914,-12.361713898857351,-10.958284983079833
10.471285480508994,-11.926361415720976,-12.650833224739257,-11.214353116813184
10.715193052376064,-12.205218399399401,-12.946772868737815,-11.476445156588639
10.96478196143185,-12.490647696828377,-13.249698031861408,-11.74470576680683
11.220184543019634,-12.782808059815778,-13.559778239566798,-12.019283305567368
11.481536214968827,-13.081862362569076,-13.877187479335255,-12.300329935430137
11.748975549395295,-13.387977730418875,-14.202104344414112,-12.5880017387085
12.022644346174129,-13.701325674154182,-14.534712184116655,-12.882458837560863
12.302687708123814,-14.022082230319093,-14.875199261104292,-13.183865519167405
12.589254117941671,-14.350428107847627,-15.223758916108874,-13.4923903663008
12.882495516931337,-14.68654884144304,-15.580589740589863,-13.808206393623115
13.182567385564068,-15.030634952140653,-15.945895757861237,-14.131491190067562
13.489628825916533,-15.382882115528101,-16.319886613266494,-14.462427067691289
13.803842646028844,-15.743491338135334,-16.702777774027904,-14.801201217416489
14.125375446227538,-16.112669142548363,-17.094790739447475,-15.148005872109978
14.45439770745927,-16.490627761845953,-17.49615326219378,-15.503038477487907
14.791083881682068,-16.87758534400806,-17.907099581469705,-15.866501871371343
15.135612484362076,-17.27376616699818,-18.327870668923005,-16.238604471861695
15.488166189124808,-17.67940086528061,-18.758714488233824,-16.619560475051127
15.84893192461113,-18.094726668596795,-19.19988626939234,-17.009590062934418
16.218100973589294,-18.519987653894535,-19.65164879876524,-17.40891962224344
16.5958690743756,-18.955435011378704,-20.114272726142598,-17.817781974985984
16.982436524617437,-19.401327325734275,-20.588036890058074,-18.236416621535902
17.37800828749375,-19.857930873660948,-21.073228662784537,-18.665069997192493
17.78279410038922,-20.32551993895556,-21.570144316526058,-19.10399574320509
18.197008586099827,-20.804377146483073,-22.079089412455925,-19.553454993341994
18.620871366628666,-21.294793816490383,-22.600379214388827,-20.013716677175218
19.054607179632463,-21.797070340840335,-23.134339129025854,-20.485057841351036
19.498445997580443,-22.311516582876678,-23.681305174872012,-20.967763990224363
19.952623149688787,-22.838452302774,-24.241624482100274,-21.462129447351522
20.417379446695282,-23.378207610382212,-24.81565582582233,-21.968457739462355
20.892961308540382,-23.931123447741964,-25.403770195425615,-22.48706200466925
21.379620895022306,-24.49755210362705,-26.006351402849187,-23.018265426818132
21.87761623949551,-25.07785776266168,-26.623796732896484,-23.562401698045736
22.38721138568338,-25.67241709176633,-27.256517638922222,-24.119815511778263
22.908676527677713,-26.28161986690415,-27.904940487481415,-24.690863088590667
23.442288153199204,-26.905869643331897,-28.56950735579083,-25.275912737541898
23.988329190194886,-27.545584472803654,-29.250676886124836,-25.875345455811807
24.547089156850284,-28.201197671431814,-29.948925201545674,-26.48955556968814
25.11886431509578,-28.87315864217641,-30.66474688765004,-27.118951420187926
25.703957827688615,-29.561933756209,-31.398656045293862,-27.76395609684686
26.302679918953796,-30.268007297677585,-32.1511874195297,-28.425008223469053
26.915348039269134,-30.99188247668033,-32.92289761024653,-29.102562799900248
27.54228703338164,-31.734082515534002,-33.71436637023192,-29.797092104164108
28.183829312644512,-32.49515181368852,-34.52619799656449,-30.50908665958274
28.840315031266034,-33.27565719688478,-35.359022821375085,-31.239056271783433
29.51209226666383,-34.07618925636615,-36.213498808066674,-31.98753114076811
30.199517204020136,-34.897363784118355,-37.090313259025045,-32.75506305348272
30.902954325135877,-35.7398233102105,-37.990184640654874,-33.54222666255899
31.622776601683764,-36.60423874831666,-38.91386453119287,-34.34962085710086
32.3593656929628,-37.49131115538114,-39.86213969612958,-35.17787023153158
33.11311214825908,-38.40177361111517,-40.835834295151464,-36.02762665858792
33.88441561392022,-39.336393222532315,-41.835812223212145,-36.89957097251714
34.67368504525312,-40.2959732579815,-42.86297958656213,-37.79441476836759
35.481338923357505,-41.28135541405773,-43.91828731219152,-38.71290232292426
36.30780547701009,-42.29342221726567,-45.002733886026235,-39.655812642278455
37.15352290971721,-43.333099560280814,-46.11736821119528,-40.62396164016914
38.018939632056075,-44.40135936996598,-47.26329257254727,-41.6182044500225
38.90451449942801,-45.49922240080098,-48.44166568709361,-42.63943787194773
39.81071705534967,-46.627761142888424,-49.65370581190398,-43.68860295371133
40.738027780411215,-47.788102827979436,-50.90069387083626,-44.76668770177135
41.68693834703348,-48.98143250976117,-52.18397654895178,-45.874729914641456
42.6579518801592,-50.20899618564693,-53.504969288094,-47.013820125974576
43.651583224016534,-51.47210391614657,-54.865159098384254,-48.18510463857244
44.668359215096245,-52.77213288414835,-56.26610707773829,-49.38978862275576
45.70881896148743,-54.11053031963244,-57.70945050432628,-50.62913924284858
46.77351412871975,-55.48881619492383,-59.196904334543675,-51.90448876354827
47.86300923226376,-56.908585570985,-60.730261900910484,-53.217237573232914
48.97788193684454,-58.37151044582621,-62.31139455981342,-54.56885704330174
50.118723362727145,-59.879340921228355,-63.942249987745335,-55.96089212088915
51.2861383991364,-61.433905463034414,-65.62484876655266,-57.394963526141694
52.480746024977165,-63.037109982766005,-67.36127883349216,-58.87276939405884
53.70317963702517,-64.69093541396686,-69.1536873016194,-60.39608616404795
54.95408738576235,-66.39743339550868,-71.0042690821591,-61.96676847724846
56.2341325190348,-68.1587196067144,-72.91525166637706,-63.58674779189849
57.54399373371558,-69.97696422694446,-74.88887535523524,-65.25802937034744
58.88436553555878,-71.8543789177972,-76.92736816825422,-66.98268722796529
60.25595860743565,-73.79319965337434,-79.03291462888942,-68.76285656499276
61.65950018614809,-75.79566465929977,-81.207617626067,-70.60072312905069
63.09573444801919,-77.8639866730573,-83.45345260767806,-72.49850888158696
64.56542290346542,-80.00031871855188,-85.77221349269364,-74.45845327070683
66.06934480075947,-82.20671261192724,-88.16544991781069,-76.48278935254201
67.60829753919803,-84.485069502586,-90.6343957868217,-78.5737139632666
69.1830970918935,-86.83708192534269,-93.1798895887112,-80.73335113702029
70.79457843841364,-89.26416712110414,-95.80228760927673,-82.96370800791976
72.44359600749884,-91.76739179858288,-98.50137198262429,-85.26662254719884
74.13102413009157,-94.34738907835082,-101.27625649316454,-87.64370269249747
75.85775750291819,-97.00426909327064,-104.1252940952626,-90.09625675008219
77.62471166286898,-99.73752560905668,-107.04599117839508,-92.6252154156228
79.43282347242794,-102.54594204274606,-110.03493454190705,-95.23104638254843
81.28305161640971,-105.42750132857194,-113.0877376908762,-97.91366329432623
83.17637711026687,-108.3793051038145,-116.19901323887883,-100.67233173363718
85.11380382023741,-111.39750851581677,-119.36237772884664,-103.50557598414403
87.09635899560782,-114.47727740946485,-122.57049393191537,-106.41109136981392
89.12509381337429,-117.61277455732528,-125.81515362050922,-109.38566795258826
91.2010839355907,-120.79718078270693,-129.08740102990438,-112.42513209399469
93.32543007969882,-124.02275520735863,-132.37769396334042,-115.52431267809904
95.4992586021433,-127.28093644909023,-135.6760961326681,-118.67703847137881
97.72372209558077,-130.5624835599512,-138.9724913126719,-121.87617201784595
99.99999999999969,-133.8576521372561,-142.25680767276418,-125.1136835759384
102.32929922807509,-137.1563977754302,-145.5192395874099,-128.3807659610672
104.71285480508962,-140.44859631964482,-148.75045449147805,-131.66798797375404
107.1519305237603,-143.72426865041604,-151.94177389474092,-134.96548071600117
109.64781961431815,-146.97379725278145,-155.08532024843285,-138.26314797000128
112.20184543019599,-150.18812268323913,-158.17412456408317,-141.55088939227207
114.81536214968791,-153.35891010027018,-161.20219305825663,-144.81882394414671
117.48975549395259,-156.47867894066985,-164.16453420616918,-148.05750095469242
120.22644346174091,-159.54089216303765,-167.05715010695127,-151.25808749869205
123.02687708123777,-162.54000478289626,-169.87699781057285,-154.41252315916577
125.89254117941633,-165.47147430077445,-172.62192719166777,-157.51363635429826
128.824955169313,-168.33173781130137,-175.29060215578855,-160.55521978498072
131.8256738556403,-171.11816196115404,-177.88241158086527,-163.53206575721512
134.89628825916495,-173.82897251398617,-180.39737561414879,-166.43996480088754
138.03842646028806,-176.46317019743609,-182.8360519418298,-169.2756729279366
141.253754462275,-179.02043892201337,-185.19944557635495,-172.0368539798637
144.5439770745923,-181.50105155925786,-187.48892467794747,-174.7220038620903
147.91083881682027,-183.90577741592597,-189.70614401459196,-177.3303631904196
151.35612484362034,-186.2357944769066,-191.85297690627033,-179.8618241627236
154.88166189124763,-188.4926085065324,-193.9314559049441,-182.31683649940638
158.48931924611082,-190.67798025192087,-195.94372202361677,-184.69631622799454
162.18100973589245,-192.79386130721366,-197.89198202684835,-187.00156004184464
165.95869074375548,-194.84233867518455,-199.7784731075112,-189.23416702144112
169.82436524617384,-196.8255876888602,-201.60543417581994,-191.39596871351137
173.78008287493694,-198.7458327087971,-203.3750829539981,-193.48896793373302
177.82794100389165,-200.60531486691863,-205.0895980838216,-195.51528618836633
181.9700858609977,-202.40626606136402,-206.75110549878568,-197.47711928156605
186.2087136662861,-204.150888397228,-208.3616683754351,-199.37670046523638
190.54607179632404,-205.84133829744286,-209.92328005031052,-201.21627037241845
194.98445997580384,-207.4797145620948,-211.43785936349374,-202.9980529300765
199.52623149688725,-209.06804972231515,-212.9072479625019,-204.72423645247008
204.1737944669522,-210.60830410863642,-214.33320916854103,-206.39695915537223
208.9296130854032,-212.1023621278783,-215.71742806932394,-208.01829839112358
213.79620895022242,-213.5520303136277,-217.06151255810445,-209.59026297509243
218.77616239495444,-214.95903678105088,-218.36699508713784,-211.11478804850907
223.87211385683312,-216.32503177598466,-219.63533494572582,-212.59373199607165
229.08676527677645,-217.6515890605984,-220.86792090879678,-214.0288750061134
234.42288153199132,-218.94020792346035,-222.06607413221454,-215.42191892470765
239.88329190194813,-220.1923156409598,-223.23105119633115,-216.77448811200844
245.47089156850208,-221.40927025026016,-224.36404722033157,-218.08813105915732
251.18864315095703,-222.59236352191263,-225.4661989872594,-219.36432256742137
257.0395782768854,-223.7428240435806,-226.53858803380794,-220.6044663282975
263.02679918953714,-224.8618203456291,-227.58224367050283,-221.8098977747035
269.1534803926905,-225.95046401519764,-228.59814590721663,-222.98188709970267
275.4228703338155,-227.00981275832362,-229.58722826642258,-224.12164236111272
281.8382931264442,-228.04087338017337,-230.55038047252563,-225.23031260843803
288.4031503126594,-229.04460466188223,-231.48845101028434,-226.30899098339307
295.12092266663734,-230.02192011924373,-232.40224954897977,-227.35871775735905
301.9951720402004,-230.97369063382635,-233.29254923179218,-228.38048327887716
309.0295432513578,-231.90074695128067,-234.16008883197287,-229.3752308121165
316.2277660168366,-232.8038820448449,-235.00557477897794,-230.34385925349244
323.5936569296269,-233.68385334453964,-235.8296830588719,-231.2872257185357
331.13112148258966,-234.54138483440764,-236.63306099410724,-232.20614799496053
338.84415613920106,-235.37716902152587,-237.4163289083002,-233.1014068608507
346.7368504525301,-236.19186878149395,-238.18008168193523,-233.9737482691415
354.8133892335739,-236.98611908576456,-238.92489020506358,-234.82388540126476
363.07805477009975,-237.76052861660037,-239.6513027330766,-235.65250059405113
371.5352290971709,-238.51568127566583,-240.35984615154982,-236.46024714484636
380.18939632055947,-239.25213759234052,-241.0510271559963,-237.2477510003725
389.0451449942788,-239.97043603780497,-241.72533335216573,-238.01561233521295
398.1071705534954,-240.67109425083166,-242.38323428228253,-238.76440702596886
407.3802778041108,-241.35461018103408,-243.02518238235493,-239.49468802717317
416.8693834703334,-242.02146315510248,-243.6516138754108,-240.20698665498105
426.5795188015906,-242.67211487130547,-244.26294960523595,-240.9018137845143
436.51583224016383,-243.30701032726353,-244.85959581491042,-241.57966096654056
446.6835921509609,-243.92657868572607,-245.44194487416232,-242.24100146893525
457.08818961487276,-244.5312340827988,-246.01037595929324,-242.88629124811337
467.73514128719586,-245.1213763827925,-246.56525568916967,-243.51596985534636
478.63009232263596,-245.69739188359057,-247.10693872053176,-244.13046128259853
489.77881936844375,-246.25965397617074,-247.63576830563576,-244.73017475223648
501.1872336272698,-246.8085237616635,-248.15207681502812,-245.31550545468926
512.8613839913622,-247.34435062908983,-248.6561862280421,-245.88683523786696
524.8074602497699,-247.86747279669382,-249.14840859341362,-246.4445332518851
537.0317963702499,-248.3782178195716,-249.6290464622342,-246.98895655239613
549.5408738576217,-248.87690306609807,-250.09839329528947,-247.5204506655912
562.3413251903462,-249.363836165463,-250.55673384667665,-248.03935011771347
575.439937337154,-249.83931542845622,-251.0043445254496,-248.54597893171513
588.843655355586,-250.30363024347696,-251.44149373690607,-249.04065109349247
602.5595860743547,-250.7570614495912,-251.8684422050098,-249.52367098995214
616.595001861479,-251.1998816883239,-252.28544327732448,-249.99533382098804
630.9573444801899,-251.63235573574082,-252.6927432137335,-250.45592598729297
645.6542290346521,-252.05474081625655,-253.09058146012242,-250.9057254557783
660.6934480075925,-252.46728689949734,-253.4791909081121,-251.34500210424284
676.0829753919782,-252.8702369814431,-253.85879814185046,-251.7740180468022
691.8309709189327,-253.2638273509831,-254.22962367279567,-252.1930279414783
707.9457843841341,-253.64828784293132,-254.59188216335497,-252.6022792812365
724.4359600749862,-254.02384207847345,-254.94578264018142,-253.0020126696654
741.3102413009135,-254.39070769393976,-255.29152869787475,-253.3924620823981
758.5775750291797,-254.7490965587385,-255.62931869377823,-253.77385511529602
776.2471166286875,-255.09921498321953,-255.95934593451818,-254.14641322033432
794.3282347242772,-255.44126391718527,-256.2817988548881,-254.5103519300641
812.8305161640948,-255.77543913971462,-256.59686118964026,-254.8658810714577
831.7637711026664,-256.10193144092057,-256.90471213871353,-255.2132049698869
851.1380382023717,-256.420926796219,-257.2055265263903,-255.5525226439304
870.9635899560758,-256.73260653364986,-257.49947495485105,-255.8840279916564
891.2509381337405,-257.0371474947549,-257.7867239525635,-256.20790996898353
912.0108393559046,-257.33472218948833,-258.0674361179246,-256.52435276067985
933.2543007969858,-257.62549894560357,-258.34177025854865,-256.8335359445258
954.9925860214306,-257.90964205293807,-258.6098815265784,-257.13563464912943
977.2372209558052,-258.18731190299326,-258.871921550379,-257.4308197058545
999.9999999999944,-258.45866512418473,-259.12803856295903,-257.71925779529397
1023.2929922807484,-258.7238547131218,-259.378377527452,-258.0011115886934
1047.1285480508936,-258.98303016225776,-259.6230802599804,-258.27653988471013
1071.5193052376003,-259.23633758423773,-259.8622855502145,-258.54569774187166
1096.4781961431788,-259.4839198332597,-260.09612927993305,-258.8087366070773
1122.018454301957,-259.72591662375135,-260.3247445398849,-259.06580444047466
1148.1536214968762,-259.96246464665904,-260.5482617452488,-259.317045837024
1174.8975549395227,-260.1936976836349,-260.76680874998493,-259.56260214505477
1202.2644346174059,-260.4197467194045,-260.98051096037096,-259.8026115821047
1230.2687708123742,-260.6407400525906,-261.18949144801553,-260.03720934832535
1258.9254117941596,-260.85680340526835,-261.393871062645,-260.2665277377278
1288.249551693126,-261.06806003152207,-261.59376854496196,-260.4906962475384
1318.256738556399,-261.2746308252759,-261.7893006398781,-260.7098416859271
1348.9628825916452,-261.47663442767134,-261.9805822104318,-260.92408827837005
1380.384264602876,-261.6741873342653,-262.1677263527081,-261.1335577729038
1412.5375446227454,-261.8674040023281,-262.350844512086,-261.33836954452795
1445.4397707459184,-262.05639695852375,-262.5300466011525,-261.5386406990151
1479.108388168198,-262.241276907263,-262.7054411196316,-261.7344861763866
1513.5612484361984,-262.4221528400255,-262.8771352766926,-261.92601885431594
1548.8166189124713,-262.59913214595804,-263.0452351160167,-262.1133496517266
1584.8931924611031,-262.772320724065,-263.20984564401937,-262.2965876328556
1621.8100973589194,-262.94182309732065,-263.3710709616432,-262.47584011206106
1659.5869074375498,-263.1077425290432,-263.5290144001609,-262.65121275965976
1698.2436524617333,-263.2701811418913,-263.6837786614461,-262.8228097090905
1737.8008287493642,-263.4292400398529,-263.8354659632009,-262.99073366570906
1778.2794100389112,-263.5850194336225,-263.98417818965135,-263.15508601753334
1819.7008586099716,-263.737618769776,-264.1300170482563,-263.31596694826897
1862.0871366628553,-263.887136864181,-264.2730842330057,-263.47347555296477
1905.4607179632346,-264.0336720400987,-264.4134815949182,-263.6277099566587
1949.8445997580325,-264.17732227146485,-264.5513113203909,-263.7787674363975
1995.2623149688663,-264.3181853318625,-264.68667611808877,-263.9267445470324
2041.7379446695156,-264.4563589497305,-264.8196794151119,-264.0717372512129
2089.2961308540253,-264.5919409703885,-264.95042556322113,-264.2138410540282
2137.9620895022176,-264.7250295254902,-265.07902005595827,-264.3531511427695
2187.761623949538,-264.85572321055923,-265.2055697575502,-264.4897625323141
2238.7211385683245,-264.9841212713047,-265.33018314454534,-264.6237702166653
2290.8676527677576,-265.1103237994542,-265.4529705611968,-264.75526932721294
2344.228815319906,-265.23443193889705,-265.5740444896733,-264.8843552983152
2398.832919019474,-265.35654810297746,-265.69351983625285,-265.0111240408422
2454.7089156850134,-265.47677620383786,-265.8115142347334,-265.1356721243612
2511.8864315095625,-265.5952218947696,-265.9281483683797,-265.2580969686902
2570.3957827688455,-265.7119928265963,-266.0435463118142,-265.37849704559227
2630.267991895363,-265.8271989191835,-266.1578358943595,-265.4969720914363
2691.5348039268965,-265.9409526492418,-266.2711490864398,-265.6136233317044
2754.2287033381467,-266.0533693556734,-266.3836224107641,-265.72855371828564
2818.3829312644334,-266.1645675637956,-266.4953973801285,-265.84186818056077
2884.031503126585,-266.2746693298676,-266.60662096380236,-265.9536738913484
2951.209226666364,-266.38380060744595,-266.7174460845988,-266.06408054886066
3019.951720401994,-266.4920916371966,-266.82803214887264,-266.1732006758902
3090.2954325135674,-266.5996773619083,-266.93854561184094,-266.2811499375392
3162.277660168356,-266.706697868566,-267.04916058078436,-266.38804747888844
3235.9365692962583,-266.81329885947787,-267.1600594588602,-266.49401628410135
3311.311214825886,-266.9196321545801,-267.2714336324376,-266.5991835585633
3388.441561392,-267.0258562271918,-267.3834842050611,-266.7036811357638
3467.36850452529,-267.1321367756475,-267.49642278134894,-266.8076459107492
3548.1338923357275,-267.23864733339605,-267.6104723043467,-266.9112203020991
3630.7805477009856,-267.3455699203323,-267.7258679500794,-267.0145527445121
3715.3522909716967,-267.45309573830895,-267.84285808327894,-267.11779821423295
3801.8939632055826,-267.561425913972,-267.9617052785008,-267.2211187896996
